 # Time Pressure(1--dim) Viscous(1--dim) Total(1--dim)
    0.020000    0.001274    0.000000    0.000190   -0.000000    0.001464    0.000000
    0.040000    0.005041    0.000000    0.000430   -0.000000    0.005470    0.000000
    0.060000    0.010861   -0.000000    0.000807    0.000000    0.011669   -0.000000
    0.080000    0.019609   -0.000000    0.001398    0.000000    0.021007   -0.000000
    0.100000    0.032532   -0.000001    0.002311   -0.000000    0.034843   -0.000001
    0.120000    0.051717    0.000001    0.003693   -0.000000    0.055411    0.000001
    0.140000    0.080101    0.000001    0.005738   -0.000000    0.085840    0.000001
    0.160000    0.121249    0.000004    0.008701   -0.000001    0.129950    0.000003
    0.180000    0.179802    0.000015    0.012910   -0.000001    0.192712    0.000014
    0.200000    0.261478    0.000021    0.018764   -0.000001    0.280242    0.000020
    0.220000    0.372973    0.000026    0.026740   -0.000001    0.399713    0.000025
    0.240000    0.521803    0.000026    0.037390   -0.000001    0.559193    0.000025
    0.260000    0.715963    0.000026    0.051305   -0.000001    0.767268    0.000025
    0.280000    0.963989    0.000044    0.069078    0.000000    1.033067    0.000044
    0.300000    1.272514    0.000074    0.091309    0.000001    1.363823    0.000074
    0.320000    1.648414    0.000097    0.118489    0.000003    1.766903    0.000100
    0.340000    2.094282    0.000189    0.150965    0.000002    2.245247    0.000191
    0.360000    2.610175    0.000275    0.188947    0.000014    2.799122    0.000289
    0.380000    3.191735    0.000449    0.232206    0.000041    3.423941    0.000490
    0.400000    3.830571    0.000602    0.280360    0.000082    4.110930    0.000684
    0.420000    4.504826    0.000175    0.332383   -0.000032    4.837209    0.000143
    0.440000    5.193101    0.000815    0.388605   -0.000148    5.581706    0.000667
    0.460000    5.899769   -0.001696    0.448598   -0.000103    6.348367   -0.001799
    0.480000    6.562251    0.001438    0.505834   -0.000008    7.068086    0.001429
    0.500000    7.145002   -0.000149    0.559827   -0.000688    7.704829   -0.000837
    0.520000    7.635344    0.002400    0.620231   -0.001534    8.255575    0.000866
    0.540000    8.049003    0.012038    0.666072   -0.001344    8.715076    0.010694
    0.560000    8.269187    0.009660    0.712345   -0.000129    8.981532    0.009531
    0.580000    8.410238   -0.001560    0.748071    0.001054    9.158309   -0.000505
    0.600000    8.431178   -0.001947    0.782425    0.000554    9.213603   -0.001393
    0.620000    8.323978   -0.015831    0.794519    0.002062    9.118497   -0.013769
    0.640000    8.024382   -0.016538    0.815454    0.001606    8.839836   -0.014932
    0.660000    7.615774    0.034576    0.821916   -0.003148    8.437690    0.031427
    0.680000    7.217201    0.019523    0.817578    0.000648    8.034779    0.020171
    0.700000    6.664333    0.023113    0.812085   -0.001477    7.476419    0.021636
    0.720000    6.131562    0.008921    0.794281   -0.001044    6.925843    0.007877
    0.740000    5.677365   -0.007134    0.777038   -0.000217    6.454403   -0.007351
    0.760000    5.130325    0.030903    0.754359   -0.002225    5.884684    0.028678
    0.780000    4.636277    0.027913    0.729519   -0.002236    5.365796    0.025678
    0.800000    4.135704    0.052988    0.707645   -0.004883    4.843349    0.048105
    0.820000    3.719310    0.023013    0.685366   -0.007958    4.404676    0.015055
    0.840000    3.396483   -0.087979    0.661397   -0.001544    4.057880   -0.089524
    0.860000    3.111857   -0.090085    0.643808   -0.000771    3.755664   -0.090856
    0.880000    2.986424   -0.042973    0.612196   -0.000829    3.598620   -0.043802
    0.900000    2.736794   -0.078753    0.596762   -0.001603    3.333556   -0.080356
    0.920000    2.619957    0.003691    0.571744   -0.001934    3.191701    0.001757
    0.940000    2.464073   -0.007460    0.555971   -0.001032    3.020044   -0.008493
    0.960000    2.312363    0.010351    0.542018   -0.001920    2.854382    0.008432
    0.980000    2.261378   -0.032015    0.526453   -0.004819    2.787831   -0.036834
    1.000000    2.204364   -0.017386    0.511506   -0.003387    2.715870   -0.020774
    1.020000    2.125948   -0.004918    0.496209   -0.002343    2.622156   -0.007261
    1.040000    2.065776   -0.052744    0.487559    0.001686    2.553335   -0.051057
    1.060000    2.035900    0.006451    0.467455    0.001305    2.503355    0.007756
    1.080000    2.008502    0.063804    0.460479    0.002393    2.468981    0.066197
    1.100000    2.003939    0.110527    0.447725   -0.007305    2.451665    0.103222
    1.120000    1.953178    0.057495    0.438138   -0.002800    2.391316    0.054694
    1.140000    1.948052    0.022114    0.428313   -0.003105    2.376365    0.019008
    1.160000    1.905282   -0.028782    0.415888   -0.004506    2.321170   -0.033289
    1.180000    1.863369   -0.075047    0.409754    0.001083    2.273123   -0.073963
    1.200000    1.848388    0.002677    0.406898   -0.000154    2.255286    0.002523
    1.220000    1.850696   -0.044713    0.401521    0.001421    2.252217   -0.043292
    1.240000    1.887221   -0.037521    0.394691    0.003709    2.281913   -0.033812
    1.260000    1.876036    0.075307    0.388382   -0.001881    2.264418    0.073426
    1.280000    1.850640    0.002176    0.384239    0.003464    2.234880    0.005640
    1.300000    1.860389    0.028571    0.378162    0.001869    2.238551    0.030439
    1.320000    1.873654   -0.049651    0.374836    0.002769    2.248490   -0.046881
    1.340000    1.884147   -0.108046    0.364098    0.003618    2.248245   -0.104428
    1.360000    1.832502   -0.039402    0.359149    0.002687    2.191651   -0.036715
    1.380000    1.796238   -0.058215    0.352973    0.004510    2.149211   -0.053705
    1.400000    1.785197    0.037564    0.347861    0.003974    2.133058    0.041538
    1.420000    1.782867   -0.023981    0.347395    0.003994    2.130262   -0.019987
    1.440000    1.779053   -0.016921    0.342775    0.007455    2.121828   -0.009466
    1.460000    1.745504    0.013612    0.337743    0.003712    2.083247    0.017323
    1.480000    1.766865    0.012688    0.336296    0.004950    2.103161    0.017639
    1.500000    1.765750    0.008816    0.330358    0.005217    2.096108    0.014033
    1.520000    1.754592    0.109393    0.326736   -0.004453    2.081328    0.104940
    1.540000    1.787623    0.039620    0.322006   -0.000074    2.109629    0.039546
    1.560000    1.782074   -0.007587    0.317328    0.004708    2.099402   -0.002879
    1.580000    1.770803   -0.035365    0.311275    0.005655    2.082078   -0.029710
    1.600000    1.775151    0.019258    0.313176    0.001174    2.088327    0.020432
    1.620000    1.834983   -0.009083    0.312318   -0.000858    2.147302   -0.009941
    1.640000    1.777625    0.066988    0.307485   -0.004407    2.085110    0.062581
    1.660000    1.779374    0.038816    0.307504    0.000389    2.086878    0.039205
    1.680000    1.800295    0.015279    0.304527   -0.002911    2.104822    0.012368
    1.700000    1.785564   -0.048332    0.301920   -0.000880    2.087484   -0.049212
    1.720000    1.760258   -0.128334    0.298163    0.001507    2.058421   -0.126827
    1.740000    1.727796   -0.099125    0.296710    0.001861    2.024506   -0.097264
    1.760000    1.727206   -0.021543    0.293343    0.002761    2.020549   -0.018782
    1.780000    1.695371    0.074151    0.290475    0.000056    1.985846    0.074208
    1.800000    1.709391    0.092250    0.291586   -0.000687    2.000976    0.091563
    1.820000    1.761918    0.005458    0.287341    0.002025    2.049260    0.007483
    1.840000    1.753768    0.003811    0.286293    0.002494    2.040061    0.006305
    1.860000    1.733543    0.006770    0.287050   -0.000558    2.020593    0.006212
    1.880000    1.719244   -0.021114    0.282759    0.000202    2.002004   -0.020912
    1.900000    1.655829    0.044975    0.283100   -0.004868    1.938929    0.040107
    1.920000    1.715441   -0.020880    0.285727   -0.002699    2.001168   -0.023579
    1.940000    1.771494   -0.081975    0.277596    0.002836    2.049090   -0.079139
    1.960000    1.723878   -0.165820    0.276772    0.006284    2.000650   -0.159536
    1.980000    1.732589   -0.130607    0.279200    0.000777    2.011790   -0.129830
    2.000000    1.754615   -0.027540    0.277081   -0.003629    2.031696   -0.031168
    2.020000    1.745166   -0.049614    0.276974   -0.000958    2.022139   -0.050571
    2.040000    1.719504   -0.035014    0.275963   -0.002139    1.995467   -0.037153
    2.060000    1.757384    0.007348    0.273996   -0.003230    2.031380    0.004118
    2.080000    1.734194   -0.049024    0.274251    0.000306    2.008445   -0.048718
    2.100000    1.746114    0.015699    0.272459   -0.001910    2.018573    0.013789
    2.120000    1.784896   -0.023007    0.267117   -0.003730    2.052014   -0.026737
    2.140000    1.719579   -0.082657    0.268311   -0.001477    1.987890   -0.084134
    2.160000    1.708972   -0.031864    0.271171   -0.003054    1.980143   -0.034918
    2.180000    1.763686   -0.041352    0.263912   -0.003904    2.027598   -0.045256
    2.200000    1.727065   -0.083975    0.265141   -0.002984    1.992205   -0.086959
    2.220000    1.721868   -0.154933    0.266066    0.002052    1.987935   -0.152881
    2.240000    1.726840   -0.112048    0.260352    0.000195    1.987192   -0.111853
    2.260000    1.691370    0.005146    0.261382   -0.003374    1.952752    0.001772
    2.280000    1.733287   -0.023638    0.261101   -0.003527    1.994388   -0.027164
    2.300000    1.736277   -0.030440    0.261013    0.000364    1.997290   -0.030076
    2.320000    1.717570   -0.071945    0.259346    0.000682    1.976917   -0.071262
    2.340000    1.742508   -0.027038    0.258773   -0.002650    2.001282   -0.029687
    2.360000    1.765868    0.026787    0.259482   -0.003964    2.025350    0.022823
    2.380000    1.768865    0.026851    0.257601   -0.003971    2.026466    0.022881
    2.400000    1.751360    0.005775    0.265439   -0.003651    2.016799    0.002124
    2.420000    1.777687   -0.055832    0.261409   -0.003459    2.039097   -0.059291
    2.440000    1.796317   -0.092071    0.255597   -0.002994    2.051914   -0.095065
    2.460000    1.781149   -0.159312    0.258219   -0.002588    2.039369   -0.161900
    2.480000    1.766250   -0.089405    0.256150   -0.004466    2.022400   -0.093871
    2.500000    1.741718   -0.064555    0.256439   -0.003337    1.998157   -0.067891
    2.520000    1.742152   -0.117366    0.258089   -0.001441    2.000241   -0.118807
    2.540000    1.778440   -0.088206    0.253536    0.000011    2.031976   -0.088195
    2.560000    1.760981   -0.091281    0.250753   -0.000815    2.011734   -0.092096
    2.580000    1.767871   -0.104560    0.250884   -0.003359    2.018755   -0.107920
    2.600000    1.754229    0.050008    0.254373   -0.008466    2.008601    0.041542
    2.620000    1.753581   -0.015621    0.251302   -0.004544    2.004883   -0.020165
    2.640000    1.733238   -0.040969    0.249940    0.001393    1.983178   -0.039576
    2.660000    1.736646   -0.045019    0.250357    0.000529    1.987003   -0.044489
    2.680000    1.797819   -0.030907    0.248094   -0.000707    2.045913   -0.031614
    2.700000    1.761844   -0.058577    0.244088   -0.003543    2.005932   -0.062121
    2.720000    1.765859   -0.042390    0.245558   -0.003105    2.011417   -0.045495
    2.740000    1.777875   -0.127210    0.244813    0.002405    2.022688   -0.124806
    2.760000    1.786537   -0.104779    0.243521   -0.000646    2.030058   -0.105425
    2.780000    1.757213   -0.074707    0.241289    0.002408    1.998502   -0.072298
    2.800000    1.708247   -0.046733    0.241835    0.002098    1.950082   -0.044635
    2.820000    1.711912    0.024760    0.240990   -0.002900    1.952902    0.021860
    2.840000    1.696910    0.024264    0.240555   -0.002017    1.937465    0.022247
    2.860000    1.719614    0.026718    0.241810   -0.002649    1.961424    0.024070
    2.880000    1.718427    0.082650    0.242792   -0.006109    1.961219    0.076541
    2.900000    1.733357    0.073496    0.237091   -0.007024    1.970448    0.066472
    2.920000    1.710353    0.102763    0.234710   -0.009474    1.945063    0.093289
    2.940000    1.725190    0.056219    0.231737   -0.005393    1.956928    0.050826
    2.960000    1.722263   -0.074198    0.237374   -0.003245    1.959637   -0.077443
    2.980000    1.761897   -0.067472    0.239781   -0.003664    2.001677   -0.071136
    3.000000    1.761066   -0.216912    0.242474    0.002770    2.003540   -0.214142
    3.020000    1.799086   -0.103235    0.240025   -0.002402    2.039111   -0.105637
    3.040000    1.726512   -0.067238    0.239480   -0.003064    1.965992   -0.070302
    3.060000    1.720685   -0.082703    0.238830   -0.001455    1.959515   -0.084158
    3.080000    1.721741   -0.020367    0.237563   -0.001774    1.959304   -0.022141
    3.100000    1.740030   -0.056556    0.237518   -0.000982    1.977547   -0.057538
    3.120000    1.749015    0.005571    0.243259   -0.003393    1.992273    0.002177
    3.140000    1.765318    0.054495    0.242250   -0.001104    2.007568    0.053390
    3.160000    1.755589   -0.042008    0.241362    0.003424    1.996951   -0.038584
    3.180000    1.714917    0.144812    0.236905   -0.004913    1.951822    0.139898
    3.200000    1.692679    0.004566    0.235743   -0.000957    1.928422    0.003609
    3.220000    1.699233   -0.016811    0.237024   -0.002155    1.936257   -0.018966
    3.240000    1.722116   -0.174449    0.238400    0.001563    1.960516   -0.172886
    3.260000    1.733922   -0.157728    0.235497   -0.000199    1.969419   -0.157928
    3.280000    1.738932   -0.194349    0.233321    0.001654    1.972253   -0.192695
    3.300000    1.750833   -0.071996    0.234490   -0.002769    1.985323   -0.074765
    3.320000    1.710452   -0.045404    0.233585   -0.000169    1.944038   -0.045573
    3.340000    1.709553   -0.049464    0.236254    0.003602    1.945807   -0.045862
    3.360000    1.723467   -0.015480    0.231616   -0.000573    1.955083   -0.016053
    3.380000    1.709191    0.047677    0.233679   -0.003545    1.942870    0.044132
    3.400000    1.695558   -0.012890    0.235972   -0.002691    1.931530   -0.015581
    3.420000    1.721232   -0.024268    0.237419   -0.002856    1.958651   -0.027124
    3.440000    1.722767   -0.029149    0.235210   -0.002240    1.957976   -0.031390
    3.460000    1.719854   -0.051308    0.230869   -0.000170    1.950723   -0.051479
    3.480000    1.710399   -0.036507    0.234128   -0.005005    1.944527   -0.041513
    3.500000    1.691627   -0.044318    0.229389   -0.007626    1.921016   -0.051944
    3.520000    1.704791   -0.043678    0.226665   -0.009306    1.931456   -0.052983
    3.540000    1.721413   -0.045420    0.229936   -0.009585    1.951349   -0.055005
    3.560000    1.734707    0.031585    0.235385   -0.015503    1.970092    0.016082
    3.580000    1.785743   -0.073030    0.237895   -0.010976    2.023638   -0.084006
    3.600000    1.776800   -0.047892    0.233694   -0.009783    2.010494   -0.057676
    3.620000    1.757308   -0.009083    0.233940   -0.010073    1.991249   -0.019156
    3.640000    1.730824   -0.042008    0.229239   -0.006811    1.960064   -0.048819
    3.660000    1.668880   -0.085565    0.228399   -0.001968    1.897279   -0.087533
    3.680000    1.649113   -0.092597    0.228563   -0.000992    1.877676   -0.093589
    3.700000    1.704711   -0.041187    0.232405   -0.003028    1.937116   -0.044215
    3.720000    1.720976   -0.001453    0.235141   -0.006437    1.956117   -0.007890
    3.740000    1.744125   -0.026708    0.234631   -0.004351    1.978756   -0.031059
    3.760000    1.733381   -0.046063    0.236037   -0.000625    1.969419   -0.046687
    3.780000    1.686683    0.005841    0.237318   -0.003397    1.924002    0.002444
    3.800000    1.663844    0.006392    0.240358   -0.004095    1.904202    0.002297
    3.820000    1.728410    0.013109    0.236174   -0.005209    1.964585    0.007900
    3.840000    1.680189   -0.032440    0.237766   -0.001205    1.917955   -0.033645
    3.860000    1.664176   -0.079281    0.237233   -0.001479    1.901408   -0.080759
    3.880000    1.670102   -0.117658    0.232764    0.002254    1.902866   -0.115403
    3.900000    1.686266   -0.020213    0.232445   -0.002893    1.918711   -0.023106
    3.920000    1.703522   -0.004249    0.237843   -0.002284    1.941364   -0.006533
    3.940000    1.731690   -0.022236    0.235994   -0.000696    1.967684   -0.022932
    3.960000    1.741207   -0.050629    0.238261    0.001697    1.979467   -0.048932
    3.980000    1.764766   -0.105099    0.239878    0.003671    2.004644   -0.101428
    4.000000    1.762534   -0.047765    0.239461    0.002710    2.001995   -0.045055
    4.020000    1.701234    0.046906    0.240108   -0.000199    1.941343    0.046707
    4.040000    1.671852   -0.027832    0.237729    0.002692    1.909581   -0.025140
    4.060000    1.668142   -0.113972    0.234353    0.005342    1.902495   -0.108630
    4.080000    1.693946   -0.168892    0.230721    0.008404    1.924667   -0.160488
    4.100000    1.663003   -0.019387    0.231773    0.000938    1.894775   -0.018449
    4.120000    1.720295   -0.043085    0.230907    0.001731    1.951202   -0.041353
    4.140000    1.728027   -0.069394    0.233368    0.003270    1.961395   -0.066124
    4.160000    1.697103   -0.012705    0.239313    0.000782    1.936416   -0.011923
    4.180000    1.761128    0.034781    0.235741    0.000324    1.996869    0.035105
    4.200000    1.751257    0.026549    0.238514   -0.000224    1.989771    0.026325
    4.220000    1.766822    0.055965    0.232416   -0.003161    1.999238    0.052804
    4.240000    1.712307   -0.027178    0.230849    0.000744    1.943156   -0.026434
    4.260000    1.696472   -0.076949    0.231426    0.000398    1.927898   -0.076551
    4.280000    1.701530   -0.099855    0.234917    0.005019    1.936447   -0.094836
    4.300000    1.713273   -0.104561    0.237893    0.005459    1.951167   -0.099102
    4.320000    1.732621   -0.044143    0.235234    0.003551    1.967855   -0.040592
    4.340000    1.703471    0.025114    0.231184    0.000505    1.934654    0.025619
    4.360000    1.712850   -0.045380    0.230686    0.001970    1.943536   -0.043410
    4.380000    1.685468    0.004548    0.235350    0.000888    1.920819    0.005435
    4.400000    1.691242   -0.105608    0.234893    0.003820    1.926135   -0.101787
    4.420000    1.677539   -0.042693    0.233760    0.004250    1.911299   -0.038443
    4.440000    1.702270   -0.044611    0.233925    0.007507    1.936195   -0.037104
    4.460000    1.707700    0.018652    0.225943    0.003538    1.933643    0.022191
    4.480000    1.662940   -0.068623    0.220689    0.005370    1.883629   -0.063253
    4.500000    1.602910    0.102943    0.225612    0.000363    1.828522    0.103307
    4.520000    1.671158   -0.013925    0.232032    0.007659    1.903190   -0.006267
    4.540000    1.717766   -0.116850    0.233845    0.008126    1.951612   -0.108725
    4.560000    1.715922   -0.138221    0.230007    0.006818    1.945929   -0.131403
    4.580000    1.674736   -0.154488    0.229366    0.005958    1.904102   -0.148530
    4.600000    1.699048    0.018034    0.233265    0.004451    1.932313    0.022486
    4.620000    1.730786    0.072433    0.231643    0.001091    1.962429    0.073524
    4.640000    1.735656   -0.029334    0.231614    0.004187    1.967271   -0.025147
    4.660000    1.693840   -0.078377    0.231939    0.007412    1.925779   -0.070965
    4.680000    1.726680   -0.066458    0.230870    0.004458    1.957551   -0.062000
